# Pulseq sequence file
# Created by MATLAB mr toolbox

[VERSION]
major 1
minor 3
revision 1

[DEFINITIONS]
FOV 0.24 0.24 0.002 
MaxAdcSegmentLength 2000 
Name spiral 
TotalDuration 0.10009 

# Format of blocks:
#  #  D RF  GX  GY  GZ ADC EXT
[BLOCKS]
 1  0  0   0   0   0  0  1
 2  0  0   0   0   0  0  2
 3  0  0   0   0   0  0  3
 4  0  1   0   0   1  0  0
 5  0  0   0   0   2  0  0
 6  1  0   0   0   0  0  0
 7  2  0   0   0   0  0  4
 8  0  0   4   5   3  1  0
 9  0  0   7   7   6  0  0
10  3  0   0   0   0  0  5
11  0  0   0   0   0  0  6
12  0  0   0   0   0  0  7
13  0  0   0   0   0  0  8
14  0  0   0   0   0  0  9

# Format of RF events:
# id amplitude mag_id phase_id delay freq phase
# ..        Hz   ....     ....    us   Hz   rad
[RF]
1      551.742 1 2 100 0 0

# Format of arbitrary gradients:
# id amplitude shape_id delay
# ..      Hz/m     ....    us
[GRADIENTS]
1       635110 3 0
3       350669 4 0
4  1.39864e+06 5 0
5  1.40099e+06 6 0
7            0 7 0

# Format of trapezoid gradients:
# id amplitude rise flat fall delay
# ..      Hz/m   us   us   us    us
[TRAP]
 2 -1.25463e+06 200  620 200   0
 6  1.26984e+06 200  850 200   0

# Format of ADC events:
# id num dwell delay freq phase
# ..  ..    ns    us   Hz   rad
[ADC]
1 2000 25900 0 0 0

# Format of delays:
# id delay (us)
[DELAYS]
1 11800
2 500
3 30220

# Format of extension lists:
# id type ref next_id
# next_id of 0 terminates the list
# Extension list is followed by extension specifications
[EXTENSIONS]
1 1 1 0
2 1 2 0
3 1 3 0
4 2 1 0
5 3 1 0
6 1 4 0
7 3 2 0
8 3 3 0
9 3 4 0

# Extension specification for digital output and input triggers:
# id type channel delay (us) duration (us)
extension TRIGGERS 2
1 1 3 0 10

# Extension specification for setting labels:
# id set labelstring
extension LABELSET 1
1 0 SET
2 0 LIN
3 0 SLC
4 0 ECO

# Extension specification for setting labels:
# id set labelstring
extension LABELINC 3
1 1 SLC
2 1 LIN
3 1 SET
4 1 REP

# Sequence Shapes
[SHAPES]

shape_id 1
num_samples 3350
0
0
98
5.16e-05
0.000738
0.000395
9.42e-05
4.99e-05
2.64e-05
1e-07
-4.67e-05
-6.16e-05
-7.47e-05
-7.5e-05
-3.19e-05
3.64e-05
0.0001263
0.0002062
0.0002677
0.0003028
0.0003214
0.0003189
0.0003013
0.0002848
0.0002297
0.0001856
0.0001475
5.08e-05
5e-07
-5.45e-05
-0.0001527
-0.0001935
-0.0002408
-0.0002901
-0.0002754
-0.0002342
-0.0001289
3.76e-05
0.00022
0.0003697
0.0004691
0.0005163
0.000521
0.0005152
0.0004504
0.0003915
0.0003397
0.0002008
0.0001223
3.92e-05
-0.000122
-0.0001973
-0.0002894
-0.0004116
-0.0004495
-0.0004881
-0.0004808
-0.000375
-0.0001961
6.68e-05
0.000336
0.000547
0.000668
0.0007341
0.0007155
0.0006737
0.0006302
0.0004758
0.0003792
0.0002793
6.33e-05
-4.47e-05
-0.0001776
-0.0003769
-0.000466
-0.0005807
-0.0006854
-0.000685
-0.0006551
-0.0005089
-0.0002332
0.000123
0.0004725
0.0007348
0.0008738
0.0009222
0.0009347
0.0008189
0.0007294
0.0006353
0.0003895
0.0002587
9.77e-05
-0.0001701
-0.0003033
-0.0004811
-0.0006876
-0.0007702
-0.0008756
-0.0009077
-0.0008077
-0.0006133
-0.0002477
0.0002059
0.0006282
0.0009183
0.0010945
0.0011096
0.001082
0.0010328
0.0008037
0.0006736
0.0005101
0.0001978
3.3e-05
-0.0001892
-0.0004851
-0.0006313
-0.0008373
-0.0010125
-0.0010563
-0.0010931
-0.0009734
-0.0006812
-0.0002353
0.0003117
0.0007988
0.0011135
0.0012714
0.0013451
0.0012144
0.0011239
0.0009929
0.0006776
0.0005022
0.0002623
-9.47e-05
-0.0002858
-0.000563
-0.000852
-0.0009924
-0.0011957
-0.0012903
-0.0012399
-0.0011107
-0.0007407
-0.0001895
0.0004391
0.0009662
0.0013285
0.0014469
0.0014813
0.0014452
0.0011909
0.0010385
0.000817
0.0004352
0.000221
-9.5e-05
-0.0004687
-0.0006736
-0.0009867
-0.0012345
-0.0013389
-0.0014796
-0.0014267
-0.0011926
-0.0007755
-0.0001207
0.000584
0.0011453
0.0014912
0.0016767
0.0016029
0.001536
0.0013863
0.0010372
0.0008292
0.0005108
8.89e-05
-0.0001545
-0.0005362
-0.0008953
-0.0010957
-0.0014109
-0.0015744
-0.0015965
-0.0015851
-0.0012858
-0.0007586
-3.05e-05
0.0007333
0.0013413
0.001652
0.0018022
0.0018166
0.0015888
0.001438
0.0011734
0.0007547
0.0005035
9.77e-05
-0.0003379
-0.0005982
-0.0010239
-0.001334
-0.0015038
-0.001767
-0.0017907
-0.0016526
-0.001361
-0.0007281
8.79e-05
0.0008977
0.0014946
0.0018563
0.0019063
0.001901
0.0017599
0.0014165
0.0011985
0.0008213
0.0003648
8.13e-05
-0.0004002
-0.0008097
-0.0010674
-0.0015064
-0.0017309
-0.0018312
-0.0019619
-0.0017665
-0.0013552
-0.0006799
0.0002172
0.0010689
0.0016443
0.0019742
0.0020902
0.0019322
0.001811
0.0015261
0.0011061
0.0008363
0.0003558
-0.0001049
-0.000406
-0.000938
-0.0012926
-0.0015238
-0.0019161
-0.002015
-0.001987
-0.0018694
-0.0013555
-0.0005874
0.0003586
0.0012132
0.0018141
0.002057
0.0021605
0.0020663
0.00177
0.0015631
0.0011416
0.0006839
0.0003777
-0.0001865
-0.0006184
-0.0009193
-0.0014639
-0.0017325
-0.0019059
-0.0021833
-0.0020933
-0.0018426
-0.0013405
-0.0004797
0.0005073
0.0013499
0.0019135
0.0021876
0.0021594
0.0021027
0.0018307
0.001447
0.0011806
0.0006505
0.0001867
-0.0001419
-0.0007594
-0.0011322
-0.0014109
-0.0019174
-0.002068
-0.0021468
-0.0021929
-0.001845
-0.0012524
-0.0003557
0.0006489
0.0014888
0.0019734
0.002232
0.002227
0.0020174
0.0018512
0.0014292
0.0010056
0.000699
8.27e-05
-0.0003423
-0.0006691
-0.0013084
-0.0015956
-0.0018345
-0.0022201
-0.0022237
-0.0021341
-0.0018369
-0.0011533
-0.0002195
0.0007813
0.0015798
0.0020572
0.002193
0.0022306
0.0020071
0.0016924
0.0014535
0.0009114
0.0004899
0.0001637
-0.0005028
-0.0008647
-0.0011732
-0.0017594
-0.0019465
-0.0021268
-0.0022919
-0.0021072
-0.0017386
-0.0010439
-8.07e-05
0.0009005
0.001621
0.002066
0.0021926
0.0021026
0.001999
0.0016003
0.0012413
0.0009586
0.0003335
-5.06e-05
-0.0003756
-0.0010455
-0.0013235
-0.0016185
-0.0020439
-0.0021291
-0.0021771
-0.0020723
-0.0016208
-0.0009042
5.14e-05
0.0009801
0.0016511
0.0019815
0.0021406
0.002004
0.0017868
0.0015989
0.0010886
0.0007264
0.0004201
-0.0002421
-0.0005619
-0.0008956
-0.0014529
-0.0016636
-0.0019034
-0.0021369
-0.0020827
-0.001922
-0.0014856
-0.0007431
0.0001708
0.0010155
0.0016226
0.0018958
0.0019405
0.0019195
0.0016013
0.0013331
0.0010993
0.0005218
0.0002064
-0.0001128
-0.0007255
-0.000988
-0.0013015
-0.0017054
-0.0018338
-0.0019701
-0.0019854
-0.0017445
-0.0013086
-0.000586
0.0002702
0.0010265
0.001502
0.001773
0.0017416
0.0016316
0.0015096
0.001081
0.0008172
0.0005562
-4.7e-06
-0.0002682
-0.0005859
-0.0010575
-0.0012652
-0.00153
-0.0017645
-0.0017901
-0.001774
-0.0015564
-0.0011009
-0.000437
0.0003224
0.0009724
0.0013525
0.0015124
0.0015683
0.0013385
0.0011706
0.0009981
0.0005387
0.0003123
3.84e-05
-0.000415
-0.0006293
-0.0009086
-0.0012285
-0.0013582
-0.001522
-0.001598
-0.0015076
-0.0013081
-0.0008887
-0.0003025
0.0003305
0.0008261
0.001149
0.0012084
0.001193
0.0011386
0.000833
0.0006643
0.0004556
7.72e-05
-0.0001094
-0.0003545
-0.0006701
-0.0008195
-0.0010229
-0.0011915
-0.0012401
-0.0012839
-0.0012058
-0.0010027
-0.0006682
-0.0001991
0.00028
0.0006205
0.0008079
0.0008968
0.00078
0.0007046
0.0005942
0.0003318
0.0001975
1.78e-05
-0.0002515
-0.0003787
-0.0005517
-0.0007185
-0.000794
-0.0008933
-0.000931
-0.0009071
-0.000841
-0.0006782
-0.0004363
-0.0001293
0.0001475
0.0003521
0.0004041
0.0004182
0.0003901
0.0002479
0.0001765
7.5e-05
-8.01e-05
-0.0001551
-0.0002593
-0.0003662
-0.0004203
-0.0004971
-0.0005262
-0.0005305
-0.00052
-0.0004776
-0.0004235
-0.0003283
-0.0002275
-0.0001247
-5.95e-05
-3.34e-05
-3.53e-05
-0.0001155
-0.0001489
-0.0001963
-0.0002582
-0.0002129
0.0003079
0.0003146
0.000308
0.0002878
0.0002412
0.0002079
0.0001416
8.26e-05
4.62e-05
-3.3e-05
-5.34e-05
-2.26e-05
4.68e-05
0.0001984
0.0003581
0.0005186
0.0006158
0.0006862
0.0007167
0.0007232
0.0007124
0.0006296
0.0005668
0.0004545
0.0002962
0.0001924
5.9e-06
-0.0001679
-0.0002758
-0.0004702
-0.0005655
-0.0005826
-0.0005869
-0.0003974
-7.31e-05
0.0003571
0.0007757
0.001095
0.0012801
0.0013651
0.0013801
0.0012679
0.0011809
0.0010094
0.0007618
0.0005921
0.0002794
-3.49e-05
-0.0002402
-0.0006134
-0.0008633
-0.0010107
-0.0012654
-0.0012625
-0.0011052
-0.0007916
-0.0001428
0.0006149
0.0013062
0.0017777
0.0020585
0.0021
0.002086
0.00194
0.0016287
0.001414
0.0010075
0.0005596
0.0002624
-0.0002792
-0.0007136
-0.001008
-0.0015497
-0.0017885
-0.0018932
-0.002041
-0.0017097
-0.0010935
-0.0001427
0.0009798
0.0019455
0.0025657
0.0028981
0.0029882
0.0027904
0.0026249
0.0022178
0.001682
0.0013133
0.0006019
-1.51e-05
-0.0004481
-0.0012698
-0.0017469
-0.0020809
-0.0027078
-0.0027917
-0.002689
-0.0023724
-0.0013836
-1.97e-05
0.0014866
0.002705
0.0034972
0.0037845
0.0038916
0.0036848
0.0032042
0.0028507
0.0020857
0.0013323
0.0007924
-0.0002783
-0.0010109
-0.0015614
-0.0026284
-0.0030699
-0.0033851
-0.0038519
-0.0035505
-0.0028927
-0.0016405
0.0002195
0.0021346
0.0035992
0.0045102
0.0048894
0.0047639
0.004603
0.0039674
0.0032113
0.0026498
0.0014405
0.0005064
-0.000208
-0.0016592
-0.0024293
-0.0030614
-0.0042558
-0.0045126
-0.0046498
-0.0045554
-0.0034822
-0.0017579
0.0005885
0.0029131
0.0046704
0.0055877
0.0060472
0.0058872
0.005345
0.0048992
0.0037321
0.0027025
0.0019074
0.0002109
-0.0008379
-0.0017111
-0.0035107
-0.0042087
-0.0049084
-0.0058629
-0.0057645
-0.0053308
-0.0041158
-0.0017895
0.001103
0.0038485
0.0058332
0.0068949
0.0071273
0.0071323
0.0063276
0.0053998
0.0046537
0.0028598
0.0016228
0.0005904
-0.0016529
-0.0027119
-0.0037958
-0.0056162
-0.006196
-0.0067699
-0.0071147
-0.0062267
-0.0045682
-0.0017157
0.0017848
0.004964
0.0070641
0.0082905
0.008471
0.0080663
0.0076358
0.0060752
0.0048216
0.0037646
0.0012702
-8.45e-05
-0.0014364
-0.003975
-0.0050453
-0.0062923
-0.0078365
-0.0080862
-0.0081393
-0.0072881
-0.0049378
-0.0014683
0.0026514
0.0062246
0.0085482
0.0095819
0.0100343
0.0092269
0.0082928
0.0074438
0.0050203
0.0035276
0.0020831
-0.0009858
-0.0024248
-0.0041371
-0.0066697
-0.0076758
-0.0088874
-0.0098195
-0.0093204
-0.0081295
-0.0053097
-0.0010311
0.0037173
0.0076006
0.0101899
0.0111488
0.0111903
0.0109605
0.00908
0.0077121
0.006401
0.0031235
0.0014683
-0.0005006
-0.0037933
-0.0053387
-0.0073283
-0.0095973
-0.0103242
-0.0111102
-0.0108558
-0.0088889
-0.0055128
-0.0004258
0.0049593
0.0092208
0.0117131
0.0130752
0.012571
0.0118237
0.0109805
0.0079309
0.0062656
0.0042846
0.0005232
-0.001373
-0.0038461
-0.0071499
-0.0086812
-0.0107525
-0.0124019
-0.0124677
-0.0121222
-0.0098149
-0.0054679
0.0003761
0.0063621
0.0110273
0.0134973
0.0144753
0.0147634
0.0127567
0.0114283
0.0097738
0.0059469
0.0038969
0.001199
-0.0028472
-0.0049241
-0.0078392
-0.0108673
-0.0121804
-0.0139567
-0.0144578
-0.0131725
-0.0105721
-0.0053347
0.0014278
0.0080272
0.0127657
0.0157242
0.0160545
0.0158452
0.0150736
0.0118241
0.0099502
0.0073947
0.0029921
0.0005996
-0.0028132
-0.0069
-0.0090344
-0.0121906
-0.014618
-0.0153714
-0.0161653
-0.0146878
-0.0109571
-0.0050208
0.002698
0.0099148
0.0147705
0.0173959
0.0186107
0.0169909
0.0158538
0.0139377
0.0097554
0.0073532
0.0038411
-0.0009131
-0.003568
-0.0076125
-0.0114531
-0.0134542
-0.0164773
-0.0178137
-0.0173967
-0.0160933
-0.0114754
-0.0043512
0.0042219
0.0118266
0.0172414
0.0192589
0.0200447
0.0196132
0.0164768
0.0145174
0.0113975
0.0064877
0.003628
-0.0008301
-0.005669
-0.0084673
-0.0129428
-0.0161898
-0.0177475
-0.0199975
-0.0194954
-0.0168352
-0.0118972
-0.003503
0.0059935
0.014014
0.0192236
0.0220591
0.0215139
0.0208468
0.0188402
0.0144944
0.0118251
0.0074528
0.0020896
-0.001149
-0.0064888
-0.0110938
-0.0138501
-0.0183892
-0.0205935
-0.0211728
-0.021577
-0.018076
-0.0117129
-0.0024317
0.0079338
0.0165661
0.0214181
0.0239146
0.0243386
0.0217391
0.0199181
0.0163251
0.0110791
0.0077942
0.0021677
-0.0033409
-0.0068327
-0.0128467
-0.0168848
-0.0193228
-0.0232993
-0.0238132
-0.0224654
-0.0193723
-0.0115306
-0.0009838
0.0101717
0.01889
0.0243717
0.0257267
0.0260419
0.0242693
0.0201003
0.0173236
0.0121124
0.0062926
0.0024951
-0.0042995
-0.009621
-0.0131895
-0.0195029
-0.0225491
-0.0242067
-0.0266382
-0.0244293
-0.0196319
-0.0112345
0.0007209
0.012708
0.0214315
0.0266787
0.028726
0.0272449
0.0259019
0.0220294
0.0167033
0.0131123
0.0062986
0.0002526
-0.0039287
-0.0116805
-0.0164533
-0.0198384
-0.0258518
-0.0273408
-0.0274806
-0.0266385
-0.0202609
-0.0103395
0.0027017
0.0152573
0.0245211
0.0288899
0.0309487
0.02993
0.0263374
0.0236851
0.0177386
0.011669
0.0073889
-0.0009503
-0.0068509
-0.0112377
-0.0195702
-0.0233904
-0.0262232
-0.0309199
-0.030032
-0.0272722
-0.020939
-0.009214
0.0050047
0.0180483
0.0272507
0.0320509
0.032507
0.0321531
0.0283478
0.0232571
0.0195251
0.0115357
0.005134
0.0003103
-0.0093331
-0.0147202
-0.0190741
-0.0273833
-0.0297566
-0.0316265
-0.0330094
-0.028623
-0.0207342
-0.0078896
0.0075329
0.0212351
0.0298883
0.0347677
0.0353112
0.0328758
0.0307025
0.0242441
0.0181894
0.0135543
0.003629
-0.0026976
-0.0078867
-0.0184429
-0.0229182
-0.0273114
-0.0338377
-0.0344961
-0.0340097
-0.030312
-0.0203945
-0.0061137
0.0103531
0.024325
0.0332424
0.036739
0.0381171
0.0349223
0.0304833
0.0268681
0.0178493
0.0113213
0.0059511
-0.0056778
-0.011526
-0.0172667
-0.0272905
-0.0308305
-0.0346085
-0.0381564
-0.0358872
-0.0308352
-0.0200671
-0.003972
0.0134961
0.0273958
0.0364378
0.0397015
0.0391813
0.037984
0.0313845
0.0256672
0.02087
0.0094199
0.0028846
-0.0033463
-0.0156455
-0.0209325
-0.0270685
-0.035329
-0.0375355
-0.0394832
-0.038513
-0.0312573
-0.0191294
-0.0015441
0.016759
0.0309753
0.0388891
0.0430518
0.0412862
0.0380261
0.0348798
0.0250757
0.0186944
0.0127818
-0.0005503
-0.0068049
-0.0141303
-0.0255562
-0.0303369
-0.0362009
-0.0417728
-0.0415882
-0.0397201
-0.0320704
-0.0176842
0.0012313
0.0201434
0.0345825
0.0420773
0.0445159
0.0450067
0.0388363
0.0338498
0.0291576
0.0163448
0.0098422
0.0022879
-0.0110289
-0.0173284
-0.0253626
-0.0351898
-0.0389157
-0.0434303
-0.0450268
-0.0406631
-0.0321376
-0.0161126
0.0043449
0.0239103
0.0375843
0.0459078
0.0467372
0.0453517
0.0431631
0.0329838
0.0270664
0.0202661
0.0064371
-0.0005516
-0.0095415
-0.0221441
-0.0281321
-0.0362441
-0.0436373
-0.0454417
-0.0468811
-0.042579
-0.0314532
-0.0141508
0.0077136
0.027809
0.0411131
0.0478612
0.0510314
0.0461151
0.0423406
0.0375095
0.0248343
0.0180377
0.0091924
-0.0048344
-0.0120607
-0.022105
-0.0332724
-0.0384637
-0.0456734
-0.0495585
-0.0479849
-0.0436841
-0.0310498
-0.0115593
0.0114154
0.031366
0.0453428
0.050323
0.0517415
0.05084
0.0415646
0.0361371
0.0286383
0.0147088
0.0071473
-0.003522
-0.0170188
-0.0241396
-0.0346282
-0.0435888
-0.0472624
-0.0520609
-0.0508623
-0.0435307
-0.030272
-0.0087209
0.0153668
0.0353195
0.0478992
0.0549506
0.0526786
0.0506024
0.0460294
0.0340956
0.0272371
0.0172293
0.0028541
-0.0051627
-0.0172677
-0.0295004
-0.0360751
-0.0460996
-0.0519404
-0.052932
-0.0529892
-0.044364
-0.028389
-0.005589
0.0193063
0.0398492
0.0508045
0.0562496
0.0573806
0.0501574
0.0454787
0.0375921
0.0240086
0.0160982
0.0038262
-0.0102146
-0.0183445
-0.0312863
-0.0415179
-0.0469279
-0.055132
-0.0566054
-0.0529594
-0.0449576
-0.0265772
-0.0019532
0.0235733
0.0431172
0.0554647
0.0577118
0.05796
0.0542886
0.0436797
0.0370992
0.0261459
0.0118257
0.0032083
-0.0109285
-0.0238888
-0.0317171
-0.0446193
-0.0520566
-0.0553641
-0.0597304
-0.0549003
-0.0436203
-0.0246042
0.0019232
0.0281601
0.0467311
0.0576404
0.062115
0.057905
0.0545792
0.0467679
0.0340246
0.0260446
0.0123285
-0.0018963
-0.0108698
-0.0262672
-0.0374307
-0.0444166
-0.0560381
-0.0596816
-0.0593428
-0.0568937
-0.0430673
-0.0215542
0.006079
0.0322204
0.0513768
0.0597381
0.0635035
0.0616327
0.0530429
0.0471899
0.0356605
0.0218328
0.0128587
-0.0031882
-0.0165262
-0.0254522
-0.0412679
-0.0499163
-0.0552857
-0.0638579
-0.0622227
-0.0557588
-0.0425883
-0.0183321
0.0105594
0.0365291
0.0544769
0.063962
0.0639256
0.0627411
0.0556441
0.0442762
0.0365804
0.0217143
0.0077312
-0.0018577
-0.019626
-0.0313585
-0.039738
-0.0547852
-0.0601138
-0.0627263
-0.0655545
-0.0563723
-0.0402636
-0.0149479
0.0150334
0.0413196
0.0573537
0.0661639
0.0673242
0.0615511
0.0569678
0.0453302
0.0324512
0.0234171
0.0056873
-0.0076262
-0.0174274
-0.0360648
-0.0455301
-0.0527095
-0.0653831
-0.0662671
-0.0643892
-0.057308
-0.0380878
-0.0109427
0.0197313
0.0452897
0.0615736
0.067181
0.0691903
0.0636793
0.0542832
0.0472908
0.031656
0.0183039
0.0083542
-0.0115967
-0.0235136
-0.033064
-0.0514385
-0.057954
-0.0636256
-0.0704009
-0.0657148
-0.0557208
-0.0359705
-0.006633
0.0246719
0.049047
0.0645754
0.0703453
0.0683925
0.0657933
0.0547299
0.0432799
0.0345386
0.0154681
0.0025514
-0.0078877
-0.0292227
-0.0391004
-0.048515
-0.063757
-0.067178
-0.0694741
-0.067846
-0.0545534
-0.0328076
-0.0021143
0.0293552
0.0535426
0.0663646
0.0729048
0.0701127
0.0633556
0.0575777
0.0417294
0.0294525
0.0194707
-0.0023647
-0.0140838
-0.0250966
-0.0455914
-0.0533899
-0.0619915
-0.0719328
-0.071084
-0.0669457
-0.0538921
-0.0291981
0.0026679
0.033931
0.0573626
0.0695829
0.0726584
0.0729268
0.0632434
0.0537156
0.045671
0.0257154
0.0136011
0.002568
-0.0206221
-0.0307847
-0.0424726
-0.0594606
-0.0651464
-0.0712678
-0.074156
-0.0664418
-0.051784
-0.0255621
0.0075993
0.038832
0.0601062
0.0727737
0.0741649
0.0708455
0.0668981
0.051479
0.0406568
0.0309746
0.0076631
-0.0034853
-0.0162488
-0.0374165
-0.0466178
-0.0579753
-0.0703493
-0.0726956
-0.0738291
-0.0670843
-0.0490097
-0.0214666
0.0125959
0.0433997
0.0636568
0.0732138
0.0775032
0.0702986
0.0632342
0.0563567
0.0360974
0.0251274
0.0129202
-0.0100273
-0.0209836
-0.0348035
-0.0529303
-0.0604878
-0.0700874
-0.0764765
-0.0735021
-0.066007
-0.0466553
-0.0167913
0.0177779
0.0472262
0.0674698
0.0747769
0.075859
0.0744968
0.0603613
0.0514249
0.0414203
0.0192325
0.007961
-0.0063412
-0.0276613
-0.0379855
-0.0519428
-0.0660409
-0.0709982
-0.0767844
-0.0752308
-0.0638273
-0.0436874
-0.0120517
0.0228847
0.0514504
0.0688688
0.0785563
0.0751061
0.0711041
0.0653087
0.0466708
0.0365847
0.0235478
0.0014471
-0.0099905
-0.0257324
-0.0444184
-0.0534984
-0.0663053
-0.075308
-0.0761832
-0.0751465
-0.0628451
-0.0396329
-0.0071497
0.0276453
0.0558803
0.0708803
0.0775513
0.0794656
0.0680748
0.0611507
0.0512018
0.0308014
0.0196904
0.0041462
-0.0167333
-0.0278361
-0.0441226
-0.0592963
-0.0663563
-0.0762584
-0.0787073
-0.0730797
-0.0611987
-0.0358094
-0.001953
0.032552
0.0584289
0.0749666
0.0769264
0.0766966
0.0723775
0.0566666
0.0475083
0.0340243
0.0132379
0.0016459
-0.0157277
-0.0344076
-0.0446312
-0.0602938
-0.0710649
-0.074985
-0.0795496
-0.0732523
-0.0576139
-0.031834
0.0032292
0.0375347
0.0612579
0.074808
0.0807852
0.0740511
0.0692434
0.0599555
0.0418517
0.0312726
0.0148681
-0.005177
-0.0167835
-0.0351859
-0.0507867
-0.0594544
-0.0729204
-0.0781863
-0.0771524
-0.0728944
-0.0550085
-0.0269583
0.0083571
0.041153
0.0650992
0.0746412
0.0787385
0.07679
0.0645794
0.0568366
0.0434563
0.024566
0.0132243
-0.0053242
-0.0233754
-0.0343219
-0.0523972
-0.0641377
-0.0703677
-0.0796001
-0.0778666
-0.0690987
-0.0521624
-0.0219894
0.0135481
0.0448513
0.0660501
0.0774981
0.0762917
0.0743
0.0663758
0.0511344
0.0415472
0.0248754
0.0064879
-0.0050593
-0.0248405
-0.0402013
-0.0499708
-0.0664132
-0.0735363
-0.0760499
-0.0783572
-0.0673453
-0.0474487
-0.0171256
0.0182667
0.0489383
0.0669425
0.0765809
0.0781437
0.0701188
0.0643234
0.0516865
0.0351502
0.0244573
0.0052808
-0.0116184
-0.0228696
-0.0428244
-0.0548578
-0.0627685
-0.075907
-0.0774029
-0.0741857
-0.0658976
-0.0432516
-0.0118648
0.0229352
0.0513958
0.0695602
0.0748711
0.0765396
0.0708299
0.058873
0.0506743
0.0342805
0.0177998
0.0065861
-0.0142227
-0.0288659
-0.0393091
-0.0581864
-0.0663195
-0.0714237
-0.0790733
-0.0733507
-0.0614227
-0.0392811
-0.0066825
0.0275524
0.0535871
0.0698303
0.0761091
0.0728276
0.069509
0.0582695
0.0444242
0.034727
0.0154267
4.1e-05
-0.0111684
-0.0325618
-0.0443755
-0.0534439
-0.0697599
-0.0733274
-0.0746433
-0.072933
-0.0581037
-0.0343529
-0.0016424
0.0313663
0.0565269
0.0691341
0.0753579
0.0727194
0.0643804
0.057944
0.0423775
0.0281165
0.0175836
-0.0037037
-0.0172443
-0.0279699
-0.0487416
-0.0572494
-0.0648001
-0.0755757
-0.0741418
-0.0689119
-0.0552723
-0.0294241
0.0033277
0.0348502
0.0580299
0.0702218
0.0723249
0.0720611
0.0628661
0.0519119
0.0435128
0.0246153
0.0110213
0.0001908
-0.0220646
-0.0332004
-0.043437
-0.0612649
-0.0665056
-0.0713819
-0.0744755
-0.0662077
-0.0509276
-0.0247334
0.0080236
0.0384339
0.0585608
0.0702776
0.0717264
0.0673623
0.0630838
0.0489296
0.0370523
0.0274753
0.0061987
-0.0059405
-0.0168472
-0.0384228
-0.0470136
-0.0565756
-0.0691002
-0.0708609
-0.0709003
-0.0643853
-0.0465204
-0.0198405
0.0124609
0.041181
0.0599759
0.0680969
0.0715548
0.0651646
0.0573223
0.0505378
0.0325918
0.0209827
0.0108298
-0.0117906
-0.021934
-0.0333856
-0.0511814
-0.0578383
-0.0654807
-0.0717722
-0.0684727
-0.0606936
-0.042638
-0.014853
0.0167538
0.0431323
0.0609131
0.0674369
0.067427
0.0657175
0.0535622
0.0442237
0.0358911
0.0152041
0.0046731
-0.0068438
-0.0271467
-0.0361933
-0.04733
-0.0606933
-0.0646998
-0.0687555
-0.0674931
-0.0567693
-0.0382724
-0.0101185
0.0205538
0.0453224
0.0598663
0.067748
0.0649175
0.0603391
0.0554426
0.03898
0.0294667
0.0192989
-0.0011736
-0.0110273
-0.0232978
-0.0404557
-0.0479991
-0.0577568
-0.0660198
-0.0662915
-0.0644737
-0.0538199
-0.0334675
-0.0055379
0.0238047
0.0471932
0.0596004
0.0643723
0.0656889
0.0561397
0.0493933
0.0419294
0.0235117
0.0141152
0.0023497
-0.0162639
-0.0253784
-0.0376202
-0.0510582
-0.0565654
-0.063637
-0.0659295
-0.0607415
-0.0501893
-0.0290675
-0.0010967
0.0269387
0.0474861
0.0603643
0.0619103
0.060799
0.057825
0.0438936
0.0362583
0.0263915
0.0083839
-0.0009592
-0.0136808
-0.0297209
-0.0377012
-0.0489985
-0.0582293
-0.0609466
-0.0635992
-0.0586198
-0.0456504
-0.0247225
0.0030284
0.029766
0.0480618
0.0579676
0.0627622
0.0564679
0.0523463
0.0458148
0.0305059
0.0221313
0.0104854
-0.0061458
-0.0150237
-0.027964
-0.0409199
-0.0473397
-0.0566091
-0.0610908
-0.0598489
-0.0557933
-0.0419393
-0.0200997
0.0068879
0.0315032
0.0493994
0.0559955
0.0585564
0.0574539
0.0471915
0.0410928
0.0318871
0.0165175
0.0079398
-0.0048338
-0.0194084
-0.0274542
-0.0397774
-0.0492595
-0.0535791
-0.0594932
-0.0584063
-0.0514083
-0.0382582
-0.0157672
0.0104771
0.033191
0.0482121
0.0565672
0.0548431
0.053013
0.0477938
0.0355975
0.0284321
0.0172616
0.0027942
-0.0055706
-0.0187714
-0.0308049
-0.037663
-0.048455
-0.0541066
-0.0555354
-0.0563726
-0.0484443
-0.0336994
-0.0117374
0.0134392
0.0350615
0.0472342
0.0535809
0.0548818
0.0482902
0.0439103
0.0357121
0.0229999
0.0153727
0.0029032
-0.0099743
-0.0177768
-0.0306475
-0.0398171
-0.0450804
-0.0532778
-0.0546357
-0.0519429
-0.0455766
-0.0296771
-0.0077154
0.0161891
0.035375
0.0476882
0.0506098
0.0513552
0.0478413
0.0387239
0.0329184
0.0225578
0.0103314
0.0026872
-0.0103963
-0.0212223
-0.0281448
-0.0398727
-0.0459457
-0.0490773
-0.053393
-0.049652
-0.041089
-0.0260117
-0.0040264
0.0187219
0.0356065
0.0459169
0.050112
0.0471603
0.0446557
0.0377805
0.0276972
0.0211735
0.0093583
-0.0016995
-0.0090128
-0.0219945
-0.0304781
-0.0361946
-0.0459005
-0.0486249
-0.0488157
-0.0476335
-0.0376275
-0.0218715
-0.0006482
0.0204144
0.0363655
0.0438672
0.0474484
0.0459988
0.0398544
0.0355155
0.0262602
0.0162612
0.0095017
-0.0030913
-0.0125255
-0.0192132
-0.0313654
-0.0373355
-0.0414599
-0.0481502
-0.0470903
-0.0432348
-0.0345304
-0.0180513
0.0024651
0.0218364
0.0358063
0.0432542
0.0438988
0.0434133
0.0381428
0.0305724
0.0252476
0.0143817
0.005172
-0.0014648
-0.0141609
-0.0217018
-0.0274878
-0.0380543
-0.0413873
-0.0436464
-0.0456231
-0.040241
-0.0305597
-0.0145812
0.0051526
0.0232324
0.0348246
0.0414204
0.0423666
0.0390736
0.036278
0.028379
0.0205204
0.014754
0.0029646
-0.0050021
-0.0112295
-0.0233555
-0.0288688
-0.0337063
-0.0414063
-0.0421466
-0.0415856
-0.037722
-0.0269575
-0.011194
0.0075109
0.0238455
0.0345088
0.0386493
0.0403068
0.0368806
0.0316706
0.0276014
0.0179353
0.0105234
0.0046946
-0.0073697
-0.0138308
-0.0195357
-0.0301531
-0.0337151
-0.0373534
-0.0410945
-0.0389206
-0.0340769
-0.0237773
-0.0080184
0.0096055
0.0240051
0.033519
0.0371015
0.0365234
0.0353197
0.0289744
0.0231137
0.0184014
0.0076776
0.0011723
-0.0044323
-0.0161434
-0.0209829
-0.0263295
-0.0339857
-0.0359277
-0.0375534
-0.036905
-0.0307766
-0.0204511
-0.0051771
0.0112156
0.0243047
0.0316558
0.0355342
0.0341405
0.0311147
0.0283211
0.0200479
0.0143222
0.0093809
-0.0017628
-0.0071011
-0.0128597
-0.0223992
-0.0261989
-0.0306669
-0.0352241
-0.0351018
-0.0336737
-0.0280352
-0.0171965
-0.0026071
0.012424
0.0241832
0.0304267
0.0324063
0.0328172
0.0281647
0.0241217
0.0204808
0.0110342
0.0059211
0.0005751
-0.0094523
-0.0139819
-0.0195105
-0.0266802
-0.0292642
-0.032261
-0.0335148
-0.0306398
-0.0249928
-0.0143204
-0.0003275
0.0134705
0.0233256
0.0293715
0.0301294
0.0290939
0.0275578
0.020798
0.0166018
0.0122774
0.0028828
-0.0016537
-0.0072218
-0.0154952
-0.0192452
-0.0241182
-0.0288458
-0.0299458
-0.0307568
-0.0283468
-0.0218638
-0.0116311
0.0016175
0.0141698
0.0226817
0.0269985
0.0290183
0.026142
0.0237188
0.0209898
0.013219
0.0092335
0.0043012
-0.0039984
-0.0080854
-0.0135232
-0.0199073
-0.0227332
-0.0264972
-0.0287182
-0.0279209
-0.0256809
-0.0192213
-0.0090451
0.0032902
0.0143124
0.0221704
0.0250679
0.0258393
0.0255084
0.0203707
0.0175045
0.013756
0.0063315
0.0024749
-0.0027196
-0.0096645
-0.0131626
-0.0181041
-0.0225771
-0.0243165
-0.0264712
-0.0260328
-0.0227246
-0.0166833
-0.0067604
0.0046703
0.0144067
0.0206387
0.0241874
0.0230965
0.0220878
0.0200745
0.0143534
0.011206
0.0068357
0.0001838
-0.0033643
-0.0084917
-0.0139596
-0.0167585
-0.0208485
-0.023407
-0.0238265
-0.023806
-0.0204269
-0.0140512
-0.0047617
0.0056528
0.0144836
0.0192825
0.0216395
0.0222422
0.0191041
0.017176
0.0140963
0.0084466
0.0053034
0.0006521
-0.0049717
-0.0080835
-0.0128321
-0.0168001
-0.0187924
-0.0216739
-0.0222988
-0.0210309
-0.0181994
-0.0117815
-0.0029699
0.0064394
0.01382
0.0185875
0.0193942
0.0195107
0.0182739
0.0143061
0.0119561
0.0082354
0.0030907
0.0001291
-0.0045168
-0.0089932
-0.0115718
-0.0156465
-0.0181506
-0.0192043
-0.0204986
-0.019078
-0.0156438
-0.0097663
-0.0014537
0.0070442
0.0131543
0.0168036
0.0183646
0.0169299
0.0158704
0.0135117
0.0094107
0.0069542
0.0029289
-0.0014687
-0.0041196
-0.0084738
-0.0118045
-0.0137821
-0.0169111
-0.0179942
-0.0179103
-0.0172017
-0.0135589
-0.007786
-0.0001863
0.0071981
0.0127505
0.0151338
0.016226
0.0157727
0.0133009
0.0116939
0.0086841
0.0048685
0.0024996
-0.0015452
-0.0050828
-0.0073391
-0.01116
-0.013377
-0.0146776
-0.0166338
-0.016298
-0.0147811
-0.0117215
-0.006064
0.0008538
0.0072303
0.0117259
0.0141452
0.0140868
0.0137965
0.0121586
0.0093579
0.007551
0.0042366
0.0009475
-0.0012085
-0.0050274
-0.0076852
-0.0094882
-0.0125708
-0.0137466
-0.0142704
-0.0147927
-0.0129755
-0.0097477
-0.0046028
0.0016124
0.007224
0.0106632
0.0125684
0.0128583
0.0115743
0.0106131
0.0083078
0.0056164
0.0038113
0.0004383
-0.0022103
-0.0040701
-0.0074515
-0.0092721
-0.010577
-0.0127516
-0.0129493
-0.0125887
-0.011364
-0.0080549
-0.0033188
0.0021653
0.0068508
0.0098914
0.0108931
0.0112539
0.0103001
0.0085551
0.0073168
0.0046956
0.0023453
0.0006723
-0.0025222
-0.0045306
-0.0060581
-0.0088314
-0.0098881
-0.0106941
-0.0117256
-0.0110092
-0.0095202
-0.0066018
-0.0022288
0.0025667
0.006365
0.008813
0.0097298
0.0093826
0.0089718
0.0073465
0.0055722
0.0042779
0.0016012
-0.0003006
-0.001765
-0.0046058
-0.0059962
-0.0071841
-0.0092082
-0.00961
-0.0098451
-0.0096256
-0.0079619
-0.0052414
-0.0013496
0.0027324
0.0059375
0.007617
0.0084697
0.0081095
0.0071747
0.0064213
0.0044964
0.0029257
0.0017058
-0.0008259
-0.0022544
-0.003466
-0.0058237
-0.0066668
-0.0075518
-0.0086216
-0.0085019
-0.0080276
-0.0066354
-0.0040509
-0.0006555
0.0027423
0.0053355
0.0066858
0.0069811
0.0069868
0.0059523
0.0048852
0.0040261
0.0020245
0.0007663
-0.0002994
-0.0025289
-0.003513
-0.0045559
-0.0061373
-0.0066223
-0.0071144
-0.0073424
-0.0066503
-0.0053573
-0.0030737
-0.0001516
0.0026687
0.0045965
0.0057428
0.0058503
0.0055013
0.0051251
0.0037949
0.0028222
0.0019918
0.0001152
-0.000825
-0.0017939
-0.0034476
-0.0041243
-0.0049231
-0.0058248
-0.0059647
-0.0059949
-0.0054863
-0.0042059
-0.0022449
0.0001995
0.0024541
0.003936
0.0046159
0.004908
0.0043676
0.0038168
0.0033087
0.0019286
0.0011511
0.0003732
-0.0011509
-0.0018314
-0.002651
-0.0037585
-0.0041769
-0.0046752
-0.0050099
-0.0048117
-0.0043453
-0.0032413
-0.0015599
0.0004199
0.0021212
0.0032969
0.0036858
0.0037027
0.0035918
0.002794
0.0022664
0.0017398
0.0005192
-5.81e-05
-0.0007558
-0.0018255
-0.0023065
-0.002925
-0.0035582
-0.0037531
-0.0039534
-0.0038326
-0.0033109
-0.0024057
-0.0010265
0.0005131
0.0017743
0.0025296
0.0029353
0.002735
0.0025188
0.0022616
0.0014187
0.0010108
0.0005104
-0.0003726
-0.0007983
-0.0013555
-0.0020256
-0.0023238
-0.002718
-0.0029838
-0.0029805
-0.0028875
-0.0024566
-0.0017015
-0.0006363
0.0004847
0.0014023
0.0018516
0.0020309
0.002065
0.0016428
0.0014049
0.0010947
0.000454
0.0001352
-0.0002872
-0.0008362
-0.0011088
-0.0014882
-0.001838
-0.0019813
-0.0021585
-0.0021689
-0.002012
-0.0016967
-0.0011227
-0.0003763
0.0003754
0.0009322
0.0012773
0.0012615
0.0012213
0.0011042
0.0007264
0.0005316
0.0002632
-0.0001423
-0.0003462
-0.0006323
-0.0009277
-0.001067
-0.0012527
-0.0013706
-0.0013958
-0.0013986
-0.0012708
-0.0010393
-0.0006677
-0.0002149
0.0002228
0.0004852
0.0006219
0.0006613
0.0005234
0.0004444
0.0003148
8.32e-05
-3.35e-05
-0.0002
-0.0003846
-0.0004769
-0.0006063
-0.0006963
-0.0007353
-0.0007755
-0.0007514
-0.0007073
-0.0006194
-0.0004915
-0.0003291
-0.0001437
-3.4e-06
8.59e-05
6.2e-05
4.48e-05
-4.4e-06
-0.0001051
-0.0001441
-0.0001976
-0.0002577
-0.0002832
-0.0003147
-0.000321
-0.0003168
-0.0002949
0.0001979
0.0002258
0.0001606
0.0001143
9.06e-05
4.94e-05
8.57e-05
0.000151
0.0002515
0.0003366
0.0004085
0.0004702
0.0004949
0.0005105
0.0004908
0.0004672
0.0004181
0.0003166
0.0002511
0.000136
2.05e-05
-5.52e-05
-0.0001975
-0.000289
-0.0003366
-0.0004179
-0.0003797
-0.0002618
-6.08e-05
0.0002313
0.0005084
0.0007205
0.0008437
0.0009071
0.0008832
0.000853
0.0007697
0.0006217
0.0005209
0.0003353
0.0001374
2.6e-06
-0.0002549
-0.0004326
-0.0005484
-0.0007545
-0.0008178
-0.000811
-0.0007737
-0.0005147
-0.0001255
0.0003521
0.0007785
0.0010823
0.0012098
0.0012659
0.0012307
0.0010862
0.0009818
0.0007674
0.0005143
0.0003431
2.23e-05
-0.0002385
-0.0004195
-0.0007564
-0.0009411
-0.0010588
-0.0012466
-0.0011918
-0.0010247
-0.0006948
-0.0001294
