# Pulseq sequence file
# Created by MATLAB mr toolbox

[VERSION]
major 1
minor 3
revision 1

[DEFINITIONS]
FOV 0.24 0.24 0.002 
MaxAdcSegmentLength 1000 
Name spiral 
TotalDuration 0.10009 

# Format of blocks:
#  #  D RF  GX  GY  GZ ADC EXT
[BLOCKS]
 1  0  1   0   0   1  0  0
 2  0  0   0   0   2  0  0
 3  1  0   0   0   0  0  0
 4  2  0   0   0   0  0  1
 5  0  0   4   5   3  1  0
 6  0  0   7   7   6  0  0
 7  3  0   0   0   0  0  2
 8  0  0   0   0   0  0  3
 9  0  0   0   0   0  0  4
10  0  0   0   0   0  0  5

# Format of RF events:
# id amplitude mag_id phase_id delay freq phase
# ..        Hz   ....     ....    us   Hz   rad
[RF]
1      553.463 1 2 100 0 0

# Format of arbitrary gradients:
# id amplitude shape_id delay
# ..      Hz/m     ....    us
[GRADIENTS]
1  1.26451e+06 3 0
3       350669 4 0
4  1.39864e+06 5 0
5  1.40099e+06 6 0
7            0 7 0

# Format of trapezoid gradients:
# id amplitude rise flat fall delay
# ..      Hz/m   us   us   us    us
[TRAP]
 2  -1.2593e+06 200  590 200   0
 6  1.26984e+06 200  850 200   0

# Format of ADC events:
# id num dwell delay freq phase
# ..  ..    ns    us   Hz   rad
[ADC]
1 37000 1400 0 0 0

# Format of delays:
# id delay (us)
[DELAYS]
1 12460
2 500
3 30850

# Format of extension lists:
# id type ref next_id
# next_id of 0 terminates the list
# Extension list is followed by extension specifications
[EXTENSIONS]
1 1 1 0
2 2 1 0
3 2 2 0
4 2 3 0
5 2 4 0

# Extension specification for digital output and input triggers:
# id type channel delay (us) duration (us)
extension TRIGGERS 1
1 1 3 0 10

# Sequence Shapes
[SHAPES]

shape_id 1
num_samples 2090
2.1e-06
1.15e-05
1.13e-05
1.14e-05
1.15e-05
1.16e-05
1.18e-05
1.2e-05
1.22e-05
1.25e-05
1.27e-05
1.3e-05
1.32e-05
1.36e-05
1.39e-05
1.42e-05
1.45e-05
1.47e-05
1.5e-05
1.52e-05
1.53e-05
1.54e-05
1.55e-05
1.54e-05
1.53e-05
1.5e-05
1.47e-05
1.42e-05
1.35e-05
1.28e-05
1.19e-05
1.08e-05
9.6e-06
8.1e-06
6.7e-06
5.2e-06
3.7e-06
2e-06
7e-07
-1e-07
-4e-07
-2e-07
1.4e-06
4.6e-06
9.3e-06
1.59e-05
2.47e-05
3.47e-05
4.6e-05
5.77e-05
6.9e-05
8.02e-05
9.06e-05
9.99e-05
0.0001088
0.0001163
0.000122
0.0001272
0.0001302
0.0001315
0.0001316
0.0001287
0.0001245
0.0001175
0.0001081
9.64e-05
8.19e-05
6.45e-05
4.52e-05
2.32e-05
-6e-07
-2.54e-05
-5.19e-05
-7.71e-05
-0.0001018
-0.0001209
-0.0001344
-0.0001337
-0.0001168
-7.23e-05
-8e-07
9.31e-05
0.0001928
0.0002804
0.000349
0.0003957
0.0004228
0.0004327
0.0004256
0.0004061
0.0003702
0.0003228
0.000262
0.0001899
0.0001075
1.74e-05
-7.93e-05
-0.0001776
-0.000272
-0.0003592
-0.0004235
-0.00045
-0.0004152
-0.0002822
-3.97e-05
0.0002725
0.0005612
0.0007648
0.0008789
0.0009141
0.0008879
0.0008117
0.0006904
0.0005315
0.0003425
0.0001286
-0.0001023
-0.0003375
-0.0005647
-0.0007646
-0.0009043
-0.000932
-0.0007729
-0.0003417
0.0003178
0.0009563
0.0013694
0.0015464
0.0015441
0.0014081
0.0011664
0.0008405
0.0004486
1.02e-05
-0.0004416
-0.0008819
-0.0012683
-0.0015368
-0.0015795
-0.0012205
-0.0003064
0.0009205
0.0018717
0.0023163
0.0023545
0.0021141
0.0016722
0.0010818
0.0003882
-0.0003614
-0.0011132
-0.0017859
-0.0022763
-0.0024016
-0.0018456
-0.0003283
0.001615
0.0029113
0.0033343
0.0031499
0.0025636
0.0017006
0.0006541
-0.0004871
-0.0016215
-0.0026217
-0.0032953
-0.003265
-0.0019688
0.0007151
0.0032256
0.0043403
0.0043098
0.0035565
0.0023503
0.0008531
-0.0007825
-0.0023984
-0.003734
-0.0044656
-0.0039524
-0.0012986
0.0026497
0.0051335
0.0056203
0.0048431
0.0033058
0.001297
-0.0009406
-0.0030943
-0.0048626
-0.005705
-0.0045912
-0.000435
0.0045176
0.00678
0.0066088
0.0050278
0.0026321
-0.0002259
-0.0031612
-0.0056984
-0.0069863
-0.0060218
-0.0013542
0.0046846
0.0074739
0.0072198
0.0053181
0.0025644
-0.0006026
-0.0036677
-0.0062183
-0.0075399
-0.0064171
-0.0013464
0.0050655
0.007949
0.0075908
0.0055357
0.0025819
-0.0007768
-0.0040091
-0.006654
-0.0080051
-0.0067438
-0.0013085
0.0053901
0.0083121
0.0078932
0.0056868
0.0025541
-0.000957
-0.0043183
-0.0070299
-0.0083719
-0.0069714
-0.0012459
0.0056507
0.0085673
0.0080689
0.0057551
0.0025117
-0.0011409
-0.0045796
-0.0073284
-0.0086465
-0.0071009
-0.0011428
0.0058342
0.0087085
0.0081163
0.0057117
0.0024098
-0.0012784
-0.0047778
-0.0075393
-0.0087993
-0.0071317
-0.0010368
0.0059488
0.0087121
0.0080251
0.0055802
0.0022435
-0.0014372
-0.0048839
-0.0076133
-0.0088098
-0.0070564
-0.000919
0.0059325
0.0085665
0.007822
0.0053374
0.0020254
-0.0015865
-0.0049438
-0.0075395
-0.0086459
-0.0068568
-0.0007971
0.005789
0.0082244
0.0074492
0.0050219
0.0017632
-0.0017171
-0.0049103
-0.0073455
-0.0083229
-0.0064922
-0.0006705
0.0055024
0.0077006
0.0068781
0.0045421
0.0015072
-0.0017954
-0.004772
-0.0069991
-0.0078209
-0.0060093
-0.0005382
0.0050785
0.0069631
0.0061171
0.003938
0.0011456
-0.0018081
-0.004481
-0.0064704
-0.007113
-0.0053893
-0.0004472
0.0044715
0.0060351
0.0051672
0.0031964
0.0007316
-0.0018199
-0.0040675
-0.0056776
-0.00619
-0.0046171
-0.0003909
0.0036461
0.0048303
0.0040619
0.0023303
0.0002734
-0.0017801
-0.003527
-0.0047131
-0.0049807
-0.0036702
-0.0003795
0.0026042
0.0033614
0.002672
0.0013594
-0.0001804
-0.001676
-0.0028252
-0.0035266
-0.0035563
-0.0025444
-0.0003983
0.0013314
0.0016152
0.0010451
0.0001886
-0.0006794
-0.001418
-0.0019502
-0.0020879
-0.0018696
-0.0012823
-0.0005041
-0.0001556
-0.0004099
-0.0008182
-0.0001959
0.0012541
0.0011322
0.0007957
0.0003589
-9.15e-05
-0.0001418
0.0007122
0.0019576
0.0027001
0.002898
0.0026075
0.0018582
0.0007647
-0.0004992
-0.0016974
-0.0023868
-0.0017261
0.0010258
0.0040529
0.0053641
0.0052263
0.0041578
0.0024877
0.0002902
-0.0020051
-0.0040097
-0.0049872
-0.0035178
0.0014549
0.0064553
0.0083553
0.0078602
0.0059125
0.0030364
-0.0003188
-0.0037533
-0.0066335
-0.007867
-0.005442
0.0019866
0.0091595
0.0116773
0.0107626
0.0078413
0.0036776
-0.0011314
-0.0058045
-0.0095757
-0.0110721
-0.0075036
0.0027152
0.012184
0.0152949
0.0139372
0.009906
0.0043335
-0.0020133
-0.0081309
-0.0129291
-0.0146092
-0.0097027
0.0036252
0.0155949
0.0193079
0.0172924
0.0120918
0.0049868
-0.0030432
-0.0106695
-0.0166263
-0.018544
-0.0120409
0.0047219
0.0193771
0.0236961
0.0209711
0.0143549
0.0055738
-0.0042254
-0.0135203
-0.0206542
-0.0227464
-0.0145486
0.0060105
0.0235236
0.0284291
0.0249434
0.0168288
0.0060987
-0.0056665
-0.0166738
-0.0250283
-0.0272921
-0.0171197
0.0075285
0.0279969
0.0335044
0.0291887
0.0194099
0.0066692
-0.0072826
-0.0202149
-0.0297855
-0.0321765
-0.0197727
0.0093254
0.0328849
0.0389154
0.0336321
0.0220881
0.0071991
-0.0090482
-0.0239783
-0.0350411
-0.037408
-0.0224884
0.0113723
0.0382006
0.0447195
0.0382527
0.024843
0.0076558
-0.0109942
-0.0281005
-0.040597
-0.0429488
-0.0253206
0.0137113
0.0438935
0.0508555
0.0432073
0.0276896
0.0079467
-0.0131749
-0.0325543
-0.0464866
-0.0487929
-0.0281675
0.0162976
0.0499503
0.0573064
0.0484128
0.0306325
0.0082441
-0.0157005
-0.0373364
-0.0527437
-0.0549505
-0.0309979
0.0192339
0.0563388
0.064113
0.0537725
0.033618
0.0084786
-0.0183604
-0.0424502
-0.0595013
-0.0613694
-0.0338044
0.022475
0.0631964
0.0711803
0.059215
0.0367024
0.0085872
-0.0211997
-0.0479184
-0.0665873
-0.0680547
-0.0366105
0.0260649
0.070408
0.0785566
0.0649205
0.0397264
0.0085611
-0.0243061
-0.0537194
-0.073931
-0.0750029
-0.0393904
0.0299703
0.0779508
0.086175
0.0708533
0.0427931
0.008378
-0.0277407
-0.0597895
-0.0815953
-0.0821928
-0.0420347
0.0342041
0.0857722
0.0941408
0.0768388
0.0458476
0.0081385
-0.0314069
-0.0661628
-0.0897069
-0.0895471
-0.0445499
0.0387841
0.0939959
0.1022182
0.0828606
0.0489544
0.0077278
-0.0351984
-0.0729385
-0.0981254
-0.0970058
-0.0469667
0.0437364
0.1025214
0.1105
0.0889813
0.0519843
0.0071674
-0.0392729
-0.0799991
-0.1066997
-0.104696
-0.0492325
0.049025
0.1112876
0.1189218
0.0952899
0.0548829
0.0064321
-0.0436546
-0.0872595
-0.1154933
-0.112516
-0.0512848
0.0546208
0.1202568
0.1276215
0.1015282
0.0577251
0.0055535
-0.048282
-0.0946863
-0.1246922
-0.1203621
-0.0530951
0.0605297
0.1295103
0.1363228
0.1076887
0.0605667
0.0044853
-0.0529954
-0.1025587
-0.1340347
-0.1281485
-0.054713
0.0667957
0.1389555
0.1450363
0.1138706
0.063282
0.0032475
-0.0579725
-0.1106399
-0.143437
-0.1360309
-0.0560691
0.0733617
0.1485064
0.1537533
0.1181947
0.0605357
-0.0025414
-0.064969
-0.1168821
-0.1482494
-0.1420028
-0.0698788
0.0534867
0.1341064
0.1470349
0.1211582
0.0754988
0.0205409
-0.0364578
-0.0878466
-0.1269484
-0.1435944
-0.1197735
-0.0353343
0.0738952
0.1328709
0.1379447
0.1125988
0.0712099
0.0216566
-0.0290036
-0.0760317
-0.1137329
-0.1347243
-0.1264518
-0.0698938
0.0291825
0.1074739
0.1332716
0.1233123
0.093295
0.0529173
0.0077558
-0.0375919
-0.0788224
-0.1112432
-0.1285115
-0.1199306
-0.069492
0.0195636
0.095371
0.1254459
0.1214629
0.0981059
0.0638834
0.0240519
-0.0174247
-0.0570007
-0.0910575
-0.1152567
-0.1231292
-0.1036535
-0.0444629
0.0393125
0.0998958
0.1207735
0.1143563
0.0921483
0.0608123
0.0245983
-0.0132098
-0.0496636
-0.0818116
-0.1063605
-0.1178569
-0.1085815
-0.0671089
0.0057335
0.0747874
0.1100288
0.1152171
0.1019226
0.0776746
0.0469517
0.0126337
-0.0219578
-0.0546854
-0.083006
-0.1038867
-0.1129757
-0.1031184
-0.0645107
0.0021808
0.0672977
0.1032253
0.1111666
0.1013963
0.0808972
0.0538947
0.0232748
-0.0086354
-0.039726
-0.0679091
-0.09086
-0.1055539
-0.1073332
-0.0886951
-0.0420218
0.0234337
0.0772034
0.1029835
0.1061345
0.095045
0.0751595
0.0498281
0.0214049
-0.0082052
-0.0373604
-0.0636658
-0.0854584
-0.1002506
-0.1043097
-0.0916159
-0.0548427
0.0035596
0.0599641
0.0931533
0.1032419
0.0976683
0.0824687
0.0610704
0.0358543
0.0087251
-0.018677
-0.0448642
-0.0682969
-0.0871589
-0.0988793
-0.0998231
-0.0843485
-0.0464459
0.0093012
0.0607724
0.0906413
0.0997058
0.0948079
0.08105
0.0615614
0.0383681
0.0131305
-0.0128163
-0.03768
-0.0604193
-0.0794859
-0.0928695
-0.0977464
-0.0899542
-0.0636973
-0.0171385
0.0362473
0.0754115
0.0936892
0.0959903
0.0877176
0.0724595
0.052694
0.0302399
0.0063716
-0.0177573
-0.040867
-0.0616885
-0.0789691
-0.09111
-0.0950157
-0.0867222
-0.061398
-0.0176153
0.0328712
0.0710545
0.0899693
0.0936421
0.0871878
0.0738222
0.0556656
0.0349558
0.0126724
-0.0101752
-0.0324176
-0.0529555
-0.0707648
-0.0844273
-0.091708
-0.0897944
-0.0745398
-0.041782
0.0050226
0.0495862
0.0783828
0.0904193
0.0899822
0.0812399
0.0671888
0.0495317
0.0293619
0.0079622
-0.0138383
-0.0348222
-0.0540933
-0.0704919
-0.0829555
-0.089641
-0.0874918
-0.0726875
-0.0418043
0.0023657
0.0455556
0.0744069
0.0874567
0.0885147
0.0811887
0.0685771
0.0523922
0.0336314
0.0134618
-0.0071306
-0.0274522
-0.0464835
-0.0633787
-0.0769567
-0.0858667
-0.087606
-0.0794647
-0.0575536
-0.0203972
0.0234144
0.0593168
0.0801895
0.0871333
0.0844269
0.0755463
0.062107
0.045496
0.027107
0.0076239
-0.0121449
-0.0312877
-0.0492035
-0.0648494
-0.0770045
-0.0847203
-0.0856508
-0.0763307
-0.0537312
-0.0172794
0.024841
0.0587967
0.0784941
0.0854973
0.0830916
0.0746781
0.0620271
0.0462466
0.0286462
0.0100245
-0.0090213
-0.0275837
-0.04507
-0.0606955
-0.0731912
-0.0817048
-0.0846502
-0.0787141
-0.0610101
-0.0296789
0.0106815
0.0473766
0.0715765
0.0825559
0.0833464
0.0775416
0.0670619
0.0529384
0.0366108
0.0190498
0.0007053
-0.017534
-0.0351713
-0.0513263
-0.0651592
-0.0760883
-0.0823428
-0.0820262
-0.0728494
-0.0512233
-0.0168221
0.0225132
0.0551316
0.0745
0.0822084
0.081397
0.0742575
0.063166
0.0492795
0.0331013
0.015697
-0.0020974
-0.0197921
-0.0366693
-0.0522755
-0.0655125
-0.0755372
-0.0814662
-0.0807869
-0.0711151
-0.0498088
-0.0161708
0.0221333
0.0539529
0.0732749
0.0809169
0.0805016
0.0740133
0.0633081
0.0499954
0.0345044
0.0177162
0.0002636
-0.0170825
-0.0336764
-0.0491401
-0.0626054
-0.0729916
-0.0797243
-0.0806802
-0.0734021
-0.0555166
-0.0252728
0.0120946
0.0458288
0.068298
0.0787255
0.0805052
0.075772
0.0664339
0.0542674
0.039686
0.0236299
0.0068417
-0.0103858
-0.026977
-0.042722
-0.0567643
-0.0682626
-0.0767423
-0.0802741
-0.0770569
-0.0648262
-0.0404922
-0.0060525
0.0302155
0.0581072
0.0740161
0.0799874
0.0781345
0.0712009
0.0608024
0.0474582
0.0324592
0.0163563
-0.0004155
-0.0172196
-0.0333802
-0.0481169
-0.0611286
-0.0715909
-0.0779664
-0.0794325
-0.0734578
-0.0570334
-0.0292242
0.0066388
0.0404092
0.0642365
0.0764972
0.0793591
0.0761103
0.0680122
0.0566013
0.0431276
0.0278285
0.0116593
-0.004917
-0.0214395
-0.0370275
-0.0514676
-0.0635907
-0.0730094
-0.078651
-0.0782833
-0.0703064
-0.0517672
-0.0217183
0.0141966
0.046202
0.0671263
0.077362
0.0789936
0.0743939
0.0659344
0.0541713
0.0402563
0.0250549
0.0088352
-0.0076077
-0.0240345
-0.0393423
-0.0532745
-0.0653082
-0.0739965
-0.0787671
-0.0777858
-0.0681238
-0.0478917
-0.0165756
0.0194455
0.0500603
0.0695423
0.0779933
0.0787654
0.07359
0.0642447
0.0522992
0.038029
0.0224439
0.0061392
-0.0104678
-0.0267954
-0.0422188
-0.0558457
-0.0673041
-0.0757823
-0.0793658
-0.0768408
-0.0654378
-0.0423062
-0.0090108
0.0270968
0.0555925
0.0726638
0.0794041
0.0782069
0.0720634
0.061942
0.0489697
0.034327
0.0182693
0.0016159
-0.0151542
-0.0315268
-0.0465453
-0.0600392
-0.0707349
-0.0777847
-0.0800789
-0.074741
-0.0594132
-0.0323167
0.0037111
0.0385395
0.0637101
0.0766434
0.0802068
0.077167
0.0689175
0.0574753
0.0436691
0.0279698
0.0113968
-0.0056476
-0.022498
-0.0387182
-0.0535107
-0.0658149
-0.0752583
-0.0804691
-0.0790937
-0.069177
-0.0476167
-0.0143545
0.0230691
0.0541108
0.0726815
0.0804223
0.080049
0.0735188
0.0632407
0.0500404
0.0346192
0.018053
0.0007556
-0.0165763
-0.0333712
-0.0492202
-0.0626474
-0.0734413
-0.0803584
-0.0811441
-0.0739384
-0.0554929
-0.0242608
0.0139445
0.0481931
0.0703226
0.0804356
0.0816798
0.0760507
0.0661029
0.0531029
0.0376047
0.0207294
0.0030882
-0.01475
-0.0320037
-0.0482879
-0.062569
-0.0737364
-0.0811222
-0.0824937
-0.0752002
-0.0565248
-0.0246104
0.0147059
0.0495545
0.0721341
0.0818833
0.0824397
0.0766323
0.0658506
0.052062
0.0360776
0.0184772
0.0002346
-0.0181066
-0.0357839
-0.0519916
-0.0662422
-0.0772515
-0.0832194
-0.0827765
-0.0725413
-0.0489741
-0.0127538
0.027749
0.0597952
0.078064
0.0846305
0.0822024
0.0736884
0.0613527
0.0459435
0.0284473
0.0099146
-0.0091252
-0.0278161
-0.0454251
-0.0613324
-0.0741371
-0.0827099
-0.0855443
-0.0792343
-0.0600772
-0.0267004
0.0153189
0.0523686
0.075558
0.0854155
0.0850001
0.0775731
0.0655553
0.0500225
0.0321161
0.0129779
-0.0067617
-0.0263288
-0.0447607
-0.0613965
-0.0751244
-0.0842384
-0.0870624
-0.0807065
-0.0606329
-0.0251817
0.0185674
0.056314
0.0789266
0.0874503
0.0860325
0.077481
0.0639926
0.0473193
0.0284216
0.0079291
-0.0126941
-0.0328708
-0.0517652
-0.0681072
-0.0807971
-0.0883267
-0.0877817
-0.0752097
-0.0468914
-0.0041245
0.0404148
0.0719001
0.0871474
0.0897434
0.0833979
0.0709982
0.0546511
0.0355208
0.0145597
-0.0070538
-0.0284655
-0.0489448
-0.0667688
-0.0809031
-0.0897803
-0.0906293
-0.0791193
-0.0507882
-0.0065727
0.040431
0.0739072
0.0896601
0.0917639
0.0847542
0.0713279
0.0535214
0.0329978
0.010807
-0.0120574
-0.0344106
-0.0551497
-0.0731537
-0.0868834
-0.0937269
-0.0902928
-0.0717894
-0.0341335
0.0163138
0.060541
0.0862911
0.0948758
0.0913521
0.0795604
0.0623266
0.0413447
0.01829
-0.0058546
-0.0297891
-0.0522782
-0.0720602
-0.0874891
-0.0960041
-0.093949
-0.0759357
-0.0372227
0.0160442
0.0630599
0.0897247
0.0977381
0.0929829
0.0797836
0.060808
0.0380798
0.0131928
-0.0124978
-0.0377639
-0.0613252
-0.0809282
-0.0947596
-0.0997553
-0.0908906
-0.0614003
-0.0101162
0.0458295
0.0840337
0.0998069
0.0990695
0.0873738
0.0686121
0.0451368
0.0189111
-0.0085056
-0.0356278
-0.0608862
-0.0823729
-0.0976684
-0.1032144
-0.0932964
-0.0603262
-0.0040122
0.0545176
0.0915293
0.1043816
0.100338
0.0855275
0.0637171
0.0374103
0.0085654
-0.0210929
-0.0498626
-0.0752375
-0.0951369
-0.1062138
-0.1030334
-0.0772292
-0.0234708
0.0420003
0.0887135
0.1075235
0.1057956
0.0908603
0.067833
0.0395925
0.0084685
-0.0234496
-0.0540675
-0.0810699
-0.1015428
-0.111239
-0.1030977
-0.0669955
-0.0016384
0.0650117
0.1033735
0.113002
0.1037426
0.0827389
0.0543321
0.0215528
-0.0130547
-0.0470369
-0.0778147
-0.1022997
-0.1154348
-0.1099207
-0.0741383
-0.0046393
0.0680102
0.1089629
0.1178173
0.106031
0.0816224
0.0493605
0.0124756
-0.0253855
-0.0615814
-0.0928096
-0.1147823
-0.1207524
-0.0990889
-0.037591
0.0461859
0.1046168
0.1234583
0.1149096
0.0903499
0.0560534
0.0163397
-0.0251869
-0.0649661
-0.0989825
-0.1219222
-0.1251793
-0.0938714
-0.0169183
0.0717671
0.12085
0.1284072
0.1104613
0.0775894
0.036086
-0.0093621
-0.0544622
-0.0945682
-0.1237966
-0.1331305
-0.1058327
-0.0255468
0.0730979
0.1276181
0.1343625
0.1124941
0.0742606
0.0269443
-0.0238229
-0.0727865
-0.1139099
-0.1386826
-0.1317451
-0.0699852
0.0402454
0.122202
0.143551
0.1254812
0.0855568
0.0337847
-0.0228434
-0.0777261
-0.1231493
-0.1478509
-0.1320844
-0.0474646
0.0755163
0.1437143
0.1473966
0.1143674
0.0616015
-0.0004599
-0.0635856
-0.1215867
-0.1548164
-0.1465156
-0.0667427
0.0626305
0.1379446
0.1422371
0.1078176
0.0545403
-0.0061966
-0.0660287
-0.1163044
-0.1460479
-0.1369503
-0.0605165
0.0607913
0.1299071
0.132772
0.0999037
0.0498183
-0.0072573
-0.0630721
-0.110071
-0.1371804
-0.1274675
-0.0546497
0.0587628
0.1218154
0.1234609
0.0923116
0.0452329
-0.0081094
-0.0601359
-0.103698
-0.128247
-0.1184007
-0.0490498
0.0564528
0.1138077
0.114412
0.0849391
0.0407967
-0.0088014
-0.0571239
-0.0971858
-0.119561
-0.1094862
-0.0437735
0.0539595
0.1058627
0.1056408
0.0777855
0.0366491
-0.0093809
-0.0540065
-0.090716
-0.1111039
-0.1007527
-0.0388367
0.0512669
0.0980674
0.0970426
0.0708858
0.0328064
-0.0097736
-0.0507702
-0.0845335
-0.1027049
-0.0922408
-0.0342735
0.0484927
0.0903761
0.088677
0.0643556
0.029151
-0.0099916
-0.0475704
-0.0783387
-0.0944559
-0.0841871
-0.0300097
0.0455562
0.0829086
0.0806923
0.0580574
0.0256745
-0.0100705
-0.0443664
-0.0721342
-0.0864975
-0.0764504
-0.0260922
0.042545
0.0756304
0.0730739
0.0520974
0.022433
-0.0100998
-0.0411173
-0.0660651
-0.0788589
-0.0689739
-0.0225265
0.0394229
0.0686165
0.0657346
0.0464427
0.0195252
-0.0099879
-0.0379141
-0.0602959
-0.0714049
-0.0618135
-0.0192888
0.0363215
0.061773
0.0587178
0.0411718
0.0168181
-0.009718
-0.0347499
-0.0547184
-0.0642127
-0.0551135
-0.0163432
0.0331853
0.0552805
0.0520593
0.036158
0.0143192
-0.0093521
-0.0316403
-0.0491954
-0.0574182
-0.0488129
-0.0136995
0.0300706
0.0490677
0.0458589
0.031468
0.0119688
-0.008928
-0.0285572
-0.0438814
-0.0509594
-0.0428472
-0.0114067
0.0269684
0.0431862
0.039994
0.0271392
0.009935
-0.0085177
-0.0255597
-0.0388758
-0.0447779
-0.0372282
-0.0093656
0.0239109
0.037559
0.0345026
0.0231677
0.0081059
-0.0079358
-0.0227443
-0.0341404
-0.0389051
-0.0320495
-0.0075718
0.020958
0.0322782
0.0293397
0.0194955
0.006468
-0.0073029
-0.0199703
-0.0295955
-0.0334937
-0.027252
-0.0060214
0.0181033
0.027365
0.0246271
0.0160432
0.0049936
-0.006637
-0.0172869
-0.0252719
-0.0284245
-0.0228706
-0.0047333
0.0153529
0.0228029
0.0202882
0.0129852
0.0036582
-0.0060046
-0.0147129
-0.0212589
-0.0236708
-0.0188056
-0.0036791
0.0126988
0.0185567
0.0163155
0.0102423
0.0025704
-0.0053406
-0.012383
-0.0175053
-0.0192553
-0.0151327
-0.0027797
0.0101988
0.0146057
0.0126896
0.007778
0.0016361
-0.0046126
-0.0101391
-0.0140846
-0.0152363
-0.011808
-0.0020558
0.0078712
0.0110536
0.0093737
0.005536
0.0008474
-0.0038884
-0.0080072
-0.0108604
-0.0116332
-0.0088562
-0.0014982
0.0056982
0.0078447
0.0064687
0.0035428
0.0001274
-0.0031801
-0.0060182
-0.0079263
-0.0083083
-0.0062335
-0.001121
0.003684
0.0049516
0.0038887
0.0018643
-0.0004265
-0.0025736
-0.0042071
-0.0052522
-0.005315
-0.0039107
-0.0008325
0.0018007
0.0023574
0.0016199
0.000414
-0.0008369
-0.0018971
-0.0026252
-0.0028783
-0.0026568
-0.0018841
-0.000642
0.0001464
5.23e-05
-0.0003937
-0.0008271
-0.0011473
-0.0012496
0.0005136
0.0007825
0.000366
0.0001431
0.0005421
0.0013355
0.001907
0.0021009
0.0019305
0.0013789
0.000637
-0.0002387
-0.0011037
-0.0016458
-0.001286
0.0005246
0.0026459
0.0035879
0.0035095
0.0027758
0.0015986
9.63e-05
-0.0014397
-0.002748
-0.00338
-0.0025074
0.00059
0.0038034
0.0050056
0.0046724
0.0034421
0.0016674
-0.0003744
-0.0024423
-0.0041492
-0.0048414
-0.0035038
0.0006673
0.0047843
0.0062051
0.0056145
0.0039512
0.0016783
-0.0008553
-0.0033141
-0.0052661
-0.0060458
-0.0042881
0.0007756
0.0055771
0.0071333
0.0063839
0.0043335
0.0016437
-0.0012858
-0.0040633
-0.0062269
-0.0069609
-0.004863
0.0009057
0.0062144
0.0078273
0.0068983
0.0046189
0.001602
-0.0016585
-0.0046829
-0.0069902
-0.0076817
-0.0052601
0.0010668
0.0067006
0.0083221
0.007236
0.0047404
0.0015188
-0.0019302
-0.0051725
-0.0075558
-0.0081999
-0.0055252
0.0012178
0.0070655
0.0086361
0.0074221
0.00476
0.0013808
-0.0021931
-0.005486
-0.0079305
-0.0085411
-0.0056504
0.0013488
0.0072651
0.0088043
0.0074761
0.0046933
0.0012283
-0.0024121
-0.0057217
-0.0081367
-0.0086816
-0.0056518
0.0014673
0.0073387
0.0087792
0.007404
0.0045852
0.0010656
-0.0025741
-0.0058583
-0.0082216
-0.0086595
-0.0055394
0.0015695
0.0072943
0.008621
0.0071954
0.0043912
0.0009298
-0.0026781
-0.0058992
-0.0081611
-0.0085161
-0.0053539
0.0016627
0.0071487
0.0083426
0.0068994
0.0041299
0.0007544
-0.002713
-0.0058254
-0.0079746
-0.0082635
-0.0050953
0.0017058
0.0069115
0.0079757
0.0065184
0.0038268
0.0005837
-0.0027316
-0.0056557
-0.0076786
-0.0078953
-0.0047752
0.0017204
0.0065736
0.0075032
0.0060864
0.0034964
0.0004183
-0.0027018
-0.0054355
-0.0072953
-0.0074112
-0.004413
0.001704
0.0061585
0.0069477
0.0055176
0.0029294
6.69e-05
-0.0027207
-0.0050836
-0.0066223
-0.0067054
-0.0043423
0.0006322
0.0046545
0.0056655
0.0047869
0.0030188
0.000873
-0.0013231
-0.003316
-0.0048479
-0.0056011
-0.0050885
-0.0025873
0.0013337
0.0039431
0.0044387
0.0037076
0.0023783
0.0007899
-0.0008376
-0.0023374
-0.0035382
-0.0042896
-0.0043248
-0.0032295
-0.0007458
0.0019301
0.0032381
0.0032819
0.0026331
0.0016442
0.0005081
-0.0006265
-0.0016694
-0.0025324
-0.003123
-0.0033206
-0.0029238
-0.0016677
0.0002542
0.0017966
0.0023859
0.0022787
0.0018019
0.0011385
0.0003936
-0.0003522
-0.0010443
-0.0016366
-0.002084
-0.002335
-0.0023144
-0.0019022
-0.0009869
0.0002309
0.0011713
0.0015609
0.0015389
0.0012837
0.0009062
0.0004712
2.26e-05
-0.0004109
-0.0008048
-0.0011372
-0.0013849
-0.0015293
-0.0015437
-0.0013855
-0.0009984
-0.0003807
0.0002838
0.0007382
0.0009203
0.0009074
0.0007769
0.0005825
0.0003587
0.0001259
-0.0001038
-0.0003181
-0.0005083
-0.000669
-0.0007945
-0.0008742
-0.0009066
-0.0008815
-0.0007786
-0.0005889
-0.0003124
-1.1e-06
0.000252
0.0003988
0.000445
0.0004254
0.0003674
0.0002833
0.0001897
9.32e-05
-3.2e-06
-9.31e-05
-0.0001759
-0.0002487
-0.0003107
-0.0003594
-0.0003969
-0.0004187
-0.000428
-0.0004219
-0.0003978
-0.0003562
-0.0002923
-0.00021
-0.0001129
-1.8e-05
5.79e-05
0.0001074
0.0001292
0.0001335
0.000122
0.0001048
8.11e-05
5.67e-05
3.06e-05
6.2e-06
-1.76e-05
-3.96e-05
-5.92e-05
-7.66e-05
-9.13e-05
-0.0001037
-0.0001134
-0.0001208
-0.0001256
-0.0001288
-0.0001293
-0.0001285
-0.000126
-0.0001213
-0.0001162
-0.0001092
-0.0001009
-9.23e-05
-8.23e-05
-7.18e-05
-6.11e-05
-4.97e-05
-3.85e-05
-2.84e-05
-1.94e-05
-1.22e-05
-6.9e-06
-3e-06
-1e-06
-1e-07
-2e-07
-7e-07
-1.8e-06
-3.2e-06
-4.7e-06
-6e-06
-7.5e-06
-8.8e-06
-1.02e-05
-1.12e-05
-1.21e-05
-1.28e-05
-1.36e-05
-1.41e-05
-1.45e-05
-1.47e-05
-1.49e-05
-1.5e-05
-1.5e-05
0
-1.49e-05
-1.49e-05
0
-1.46e-05
-1.45e-05
-1.41e-05
-1.4e-05
-1.36e-05
-1.34e-05
-1.31e-05
-1.29e-05
-1.25e-05
-1.24e-05
-1.21e-05
-1.19e-05
-1.17e-05
-1.15e-05
-1.15e-05
0
-1.13e-05
-1.13e-05
0
-1.23e-05
0

shape_id 2
num_samples 2090
0.5136208
-6e-06
-1.48e-05
-2.41e-05
-3.46e-05
-4.65e-05
-6.05e-05
-7.66e-05
-9.56e-05
-0.0001177
-0.0001436
-0.0001736
-0.000209
-0.0002488
-0.0002942
-0.0003456
-0.0004034
-0.000468
-0.0005413
-0.0006279
-0.000726
-0.0008361
-0.0009593
-0.0010991
-0.0012512
-0.0014205
-0.0016256
-0.001862
-0.0021277
-0.0024253
-0.0027564
-0.0031432
-0.0036225
-0.0041719
-0.0048038
-0.0055068
-0.0063737
-0.0074278
-0.008625
-0.0099552
-0.0115166
-0.0133581
-0.0152576
-0.0170446
-0.0188034
-0.0202138
-0.0207745
-0.020534
-0.0197589
-0.0182314
-0.0162879
-0.0144362
-0.012527
-0.0107029
-0.0092067
-0.0078249
-0.0065971
-0.0056052
-0.0046801
-0.003884
-0.0031926
-0.0025343
-0.0019561
-0.0013947
-0.000852
-0.0003154
0.000239
0.0008381
0.0014794
0.0022163
0.0030671
0.0040858
0.0053575
0.0069224
0.0090022
0.0116197
0.0151891
0.0195965
0.0252194
0.0308325
0.0353879
0.0362358
0.0334204
0.0279422
0.0221926
0.0170947
0.0130363
0.0099242
0.0074629
0.0055674
0.0039783
0.0026604
0.001467
0.0003391
-0.0008054
-0.0020368
-0.0034708
-0.0052219
-0.0074683
-0.0105652
-0.0148396
-0.0208713
-0.0291795
-0.0387098
-0.0459735
-0.0459443
-0.0383929
-0.0287349
-0.020576
-0.0144796
-0.010134
-0.0069783
-0.0045645
-0.0025797
-0.0008286
0.0008858
0.0027442
0.0049503
0.0078226
0.0118611
0.0178097
0.0266804
0.0390606
0.0516394
0.0551818
0.045968
0.0325591
0.0217617
0.0143771
0.0093871
0.0058373
0.0030942
0.000735
-0.0015995
-0.0041946
-0.0075019
-0.0121877
-0.0193644
-0.0306853
-0.0468493
-0.0611641
-0.0592779
-0.0434711
-0.0280249
-0.0175329
-0.0108402
-0.0063276
-0.0029465
-2.68e-05
0.0029489
0.0065346
0.0115366
0.0193431
0.0322275
0.0516127
0.0682757
0.0626052
0.0423175
0.0255926
0.0151944
0.0087213
0.0042586
0.0006586
-0.0028704
-0.0071086
-0.0131899
-0.0231997
-0.0402781
-0.0641536
-0.0746834
-0.0565522
-0.0338616
-0.0193047
-0.0107334
-0.0051895
-0.0009136
0.0032156
0.0083137
0.0158871
0.0289613
0.0517203
0.0771533
0.0732015
0.0461249
0.0254895
0.0137629
0.0067197
0.0016423
-0.0031032
-0.0087918
-0.0175453
-0.0332716
-0.0607365
-0.0848874
-0.069315
-0.0394132
-0.02075
-0.0104585
-0.0039453
0.0013998
0.0072355
0.0157028
0.0307545
0.0582382
0.086795
0.0740055
0.04181
0.0215623
0.01068
0.003955
-0.0014945
-0.0073671
-0.0159333
-0.03117
-0.0588871
-0.0870354
-0.073402
-0.0412604
-0.0212587
-0.0105306
-0.0038385
0.0015986
0.0075101
0.0161608
0.0315617
0.0595853
0.0872805
0.0727376
0.040709
0.0209856
0.0103714
0.0037194
-0.0017054
-0.0076524
-0.0163709
-0.0319917
-0.0602731
-0.0874797
-0.0720773
-0.0401768
-0.02072
-0.0102038
-0.0036061
0.0018155
0.0077876
0.016593
0.032431
0.0609682
0.0876496
0.0713921
0.0396844
0.0204349
0.0100365
0.0034986
-0.0019252
-0.0079173
-0.0168348
-0.0328688
-0.0616234
-0.087807
-0.0707634
-0.0391596
-0.0201465
-0.0098921
-0.0033841
0.0020297
0.0080649
0.0170731
0.0332815
0.0623294
0.087963
0.0700802
0.0386342
0.0198851
0.0097393
0.0032675
-0.0021376
-0.0082119
-0.0172943
-0.0337314
-0.0630219
-0.0880773
-0.0694012
-0.0381254
-0.019634
-0.0095778
-0.003156
0.0022491
0.0083515
0.0175258
0.0341942
0.0637218
0.0881549
0.0687018
0.0376571
0.0193635
0.0094167
0.0030497
-0.0023598
-0.0084846
-0.0177789
-0.0346542
-0.0643768
-0.0882259
-0.0680557
-0.0371597
-0.0190898
-0.0092772
-0.0029369
0.0024646
0.0086367
0.0180284
0.0350868
0.0650822
0.0882903
0.0673657
0.036659
0.0188416
0.0091305
0.0028226
-0.0025736
-0.0087885
-0.0182598
-0.0355543
-0.0657688
-0.0883172
-0.0666805
-0.0361772
-0.0186046
-0.0089757
-0.0027128
0.0026865
0.0089317
0.0184989
0.0360354
0.0664531
0.088304
0.0659832
0.0357393
0.0183514
0.008822
0.0026079
-0.0027975
-0.0090656
-0.0187568
-0.0365027
-0.067081
-0.0882671
-0.0653582
-0.0352872
-0.0181022
-0.0086928
-0.0024984
0.0029003
0.0092085
0.0189799
0.0368559
0.067575
0.0881409
0.0647542
0.034882
0.0178505
-0.4910222
0.0022768
-0.003038
-0.0094371
0.9806338
-0.0376219
-0.0686771
-0.0881191
-0.0637175
-0.0342024
-0.017571
-0.0083704
-0.0022694
0.0031358
0.0095536
0.0195656
0.0380664
0.0692993
0.0880694
0.0631133
0.0338289
-0.9826538
0.0082287
0.0021664
-0.0032478
-0.0096905
0.980163
-0.038555
-0.0699191
-0.0879732
-0.0624792
-0.0333916
-0.0171032
-0.008099
-0.0020568
0.003354
0.0098524
0.0201109
0.039029
0.0706024
0.0878518
0.0617961
0.0329449
-0.9831226
0.0079627
0.001946
-0.0034658
-0.0100156
0.9796321
-0.039544
-0.0712696
-0.0877033
-0.0611063
-0.0325067
-0.0166634
-0.0078183
-0.0018387
0.0035832
0.0101709
0.0206323
0.0400798
0.0719456
0.0875069
0.0604046
0.0321047
-0.9835688
0.0076729
0.0017345
-0.0036986
0.9896828
-0.0209261
-0.0406136
-0.0725649
-0.087313
-0.0597523
-0.0316781
-0.0161944
-0.0075447
-0.0016252
0.0038066
0.0104868
0.0212178
0.0411171
0.0732368
0.0871035
0.0590657
0.0312488
-0.9840242
0.0074119
0.0015155
-0.0039204
0.9893426
-0.0214909
-0.0416579
-0.0738846
-0.08687
-0.0583811
-0.0308279
-0.0157711
-0.0072716
-0.0014089
0.0040404
0.0108197
0.0217691
0.0422207
0.0745397
0.0865859
0.0576869
0.0304456
-0.9844513
0.0071303
0.001305
-0.004158
0.9890285
-0.0220789
-0.042782
-0.0751313
-0.0863092
-0.0570413
-0.0300401
-0.0153225
-0.0070051
-0.0011962
0.0042677
0.0111476
0.0223865
0.0433097
0.0757774
0.086013
0.056367
0.029632
-0.9848875
0.0068762
0.0010876
-0.0043835
0.9886746
-0.0226754
-0.0438735
-0.0763937
-0.0857019
-0.0556929
-0.0292308
-0.0149172
-0.00674
-0.000982
0.0045064
0.0114948
0.0229671
0.0444622
0.0770169
0.0853357
0.0550134
0.0288676
-0.9852953
0.0066029
0.000878
-0.0046264
0.9883477
-0.0232936
-0.0450484
-0.077572
-0.0849821
-0.0543796
-0.0284831
-0.0144887
-0.0064804
-0.0007697
0.0047379
0.0118354
0.0236178
0.0456004
0.0781799
0.0846068
0.0537221
0.0280958
-0.9857129
0.0063551
0.0006618
-0.0048558
0.9879791
-0.0239231
-0.0461862
-0.0787563
-0.0842228
-0.053063
-0.0277141
-0.0141006
-0.0062229
-0.0005568
0.0049818
0.0121977
0.0242293
0.0467999
0.0793376
0.0837819
0.0524018
0.027369
-0.9861023
0.0060896
0.0004527
-0.0051046
0.9876387
-0.0245731
-0.0474105
-0.0798468
-0.0833581
-0.0517834
-0.0270048
-0.0136912
-0.0059697
-0.0003445
0.0052182
0.0125518
0.0249149
0.0479857
0.0804068
0.0829114
0.051146
0.0266371
-0.9865025
0.0058477
0.0002372
-0.0053384
0.9872546
-0.0252377
-0.0485924
-0.0809339
-0.0824614
-0.0505056
-0.0262741
-0.0133192
-0.005719
-0.0001328
0.0054677
0.0129303
0.0255592
0.0492299
0.0814641
0.0819541
0.0498648
0.0259464
-0.9868748
0.0055894
2.83e-05
-0.0055935
0.9868993
-0.0259211
-0.0498636
-0.0819183
-0.0814681
-0.0492645
-0.0256014
-0.0129275
-0.0054719
8e-05
0.0057097
0.0132988
0.0262816
0.0504605
0.0824213
0.0809582
0.0486495
0.0252525
-0.9872587
0.0053528
-0.000187
-0.0058323
0.9864987
-0.0266228
-0.0510866
-0.0828897
-0.0804507
-0.0480301
-0.0249073
-0.0125664
-0.0052204
0.0002377
0.0057411
0.0130546
0.0252362
0.0475144
0.0777593
0.0805671
0.0512269
0.02746
-0.9855599
0.0069113
0.0016757
-0.00303
-0.0085022
0.9833976
-0.0305594
-0.0544234
